Variação(mm),Carga(KN)
0,0
0.02,7.6
0.04,14.9
0.06,22.2
0.08,28.5
0.1,29.9
0.12,30.6
0.16,32.2
0.21,33.1
0.24,33.3
0.51,36.8
1.01,41.1
1.51,43.8
2.01,45.8
3.02,48.3
4.01,49.7
5.03,50.4
6.02,50.7
7.02,50.4
8.03,50.1
9.02,49.7
10.05,47.9
11.06,45.1
